"t-avg-rfile"
"Time Step" "avg-temperature etc.."
("Time Step" "avg-temperature" "flow-time")
0 293.1500000000018 0
1 293.1658365836108 0.3
2 293.1753278486432 0.6
3 293.1821604009054 0.8999999999999999
4 293.187643079861 1.2
5 293.1924175982032 1.5
6 293.1967794580626 1.8
7 293.200872045373 2.1
8 293.204786113781 2.4
9 293.2086034818435 2.7
10 293.2123832564019 3
11 293.216156088896 3.3
12 293.2199211734757 3.6
13 293.223667881779 3.9
14 293.2273879401579 4.2
15 293.2310776392069 4.5
16 293.2347367725811 4.8
17 293.2383672582763 5.1
18 293.241972832384 5.399999999999999
19 293.2455579174629 5.7
20 293.2491274334086 6
21 293.252685908029 6.3
22 293.2562369676252 6.6
23 293.2597837983736 6.899999999999999
24 293.2633291472032 7.199999999999999
25 293.2668744508355 7.5
26 293.270421052285 7.8
27 293.2739699013811 8.1
28 293.277521514546 8.4
29 293.2810761535102 8.699999999999999
30 293.2846338582088 9
31 293.2881946104771 9.299999999999999
32 293.2917583456116 9.6
33 293.2953249257534 9.9
34 293.2988941067824 10.2
35 293.3024655831374 10.5
36 293.3060391258309 10.8
37 293.3096146197172 11.1
38 293.3131916061346 11.4
39 293.3167699299318 11.7
40 293.3203492775347 12
41 293.3239294016985 12.3
42 293.3275100682029 12.6
43 293.3310910833496 12.9
44 293.3346723106765 13.2
45 293.3382535793551 13.5
46 293.3418346453585 13.8
47 293.3454152881819 14.1
48 293.3489952625998 14.4
49 293.3525743453588 14.7
50 293.3561523604055 15
51 293.3597291917004 15.3
52 293.3633047530631 15.6
53 293.3668789714658 15.9
54 293.3704517658385 16.2
55 293.3740230894883 16.5
56 293.377592921317 16.8
57 293.3811612093014 17.1
58 293.3847280665772 17.4
59 293.388293377363 17.7
60 293.3918570965574 18
61 293.3954190984243 18.3
62 293.3989792419184 18.6
63 293.4025370200786 18.9
64 293.4060916202905 19.2
65 293.4096427072426 19.5
66 293.413190215784 19.8
67 293.4167341980702 20.1
68 293.4202747560086 20.4
69 293.4238120591525 20.7
70 293.4273462880806 21
71 293.4308774710335 21.3
72 293.4344056507871 21.6
73 293.437930839271 21.9
74 293.4414529650668 22.2
75 293.4449720017441 22.5
76 293.4484880556208 22.8
77 293.4520015451094 23.1
78 293.4555126425625 23.4
79 293.4590213089862 23.7
80 293.4625273583666 24
81 293.4660305904676 24.3
82 293.4695307419782 24.6
83 293.4730273381392 24.9
84 293.4765197837546 25.2
85 293.4800076969818 25.5
86 293.4834906927348 25.8
87 293.4869677203187 26.1
88 293.4904377842526 26.4
89 293.493900530991 26.7
90 293.4973573226133 27
91 293.5008102728825 27.3
92 293.5042627357609 27.6
93 293.5077174303477 27.9
94 293.5111776688888 28.2
95 293.5146466069401 28.5
96 293.5181256244468 28.8
97 293.5216153851372 29.1
98 293.5251163724991 29.4
99 293.5286293203396 29.7
100 293.5321550338637 30
101 293.5356943089281 30.3
102 293.5392478001269 30.6
103 293.5428158533839 30.9
104 293.5463987884039 31.2
105 293.5499965024721 31.5
106 293.5536089203526 31.8
107 293.557236306208 32.1
108 293.5608789360481 32.4
109 293.5645370109029 32.7
110 293.5682108604951 33
111 293.5719008341728 33.3
112 293.5756074565026 33.6
113 293.5793314185506 33.9
114 293.5830730011485 34.2
115 293.5868311524243 34.5
116 293.5906062694367 34.8
117 293.5943998987136 35.1
118 293.5982126567187 35.4
119 293.6020415065221 35.7
120 293.6058831101895 36
121 293.6097361834221 36.3
122 293.6135991663194 36.6
123 293.6174711413038 36.9
124 293.621351297329 37.2
125 293.6252393598715 37.5
126 293.6291351510374 37.8
127 293.633038505953 38.1
128 293.6369491455505 38.4
129 293.6408668151191 38.7
130 293.6447911828563 39
131 293.6487219831831 39.3
132 293.6526589661929 39.6
133 293.6566018175022 39.9
134 293.660550219596 40.2
135 293.6645038684109 40.5
136 293.6684624410581 40.8
137 293.6724256475246 41.1
138 293.6763931354802 41.4
139 293.6803646457078 41.7
140 293.6843398715934 42
141 293.6883185259859 42.3
142 293.6923003179659 42.6
143 293.6962850091173 42.9
144 293.7002723363431 43.2
145 293.7042620550145 43.5
146 293.7082539557975 43.8
147 293.7122479658746 44.1
148 293.7162437582911 44.4
149 293.7202411532695 44.7
150 293.7242400896885 45
151 293.7282403669111 45.3
152 293.7322418202 45.6
153 293.7362443346778 45.9
154 293.7402477957875 46.2
155 293.7442523972673 46.5
156 293.7482580757172 46.8
157 293.752264735135 47.1
158 293.7562723295031 47.4
159 293.7602807900964 47.7
160 293.7642900392561 48
161 293.7682999527313 48.3
162 293.7723104010462 48.6
163 293.7763212504188 48.9
164 293.7803323290523 49.2
165 293.7843434891265 49.5
166 293.7883546441943 49.8
167 293.7923656622867 50.1
168 293.7963763987543 50.4
169 293.8003867792593 50.7
170 293.8043966651591 51
171 293.8084059513722 51.3
172 293.8124145298428 51.6
173 293.8164222814252 51.9
174 293.8204291122067 52.2
175 293.8244349188864 52.5
176 293.8284396241858 52.8
177 293.8324431151015 53.1
178 293.8364452894924 53.4
179 293.8404460594166 53.7
180 293.844445337037 54
181 293.8484430759091 54.3
182 293.8524391812914 54.6
183 293.8564336225375 54.9
184 293.8604263472553 55.2
185 293.8644173011741 55.5
186 293.8684064248815 55.8
187 293.8723935814778 56.1
188 293.8763788332843 56.4
189 293.8803621880247 56.7
190 293.8843434977946 57
191 293.8883227666226 57.3
192 293.8922998661624 57.59999999999999
193 293.8962748118221 57.9
194 293.9002476167301 58.2
195 293.904218294029 58.5
196 293.9081868383515 58.8
197 293.9121532293657 59.09999999999999
198 293.916117462852 59.4
199 293.920079530202 59.7
200 293.9240394017226 60
201 293.9279971730386 60.3
202 293.9319527764297 60.59999999999999
203 293.9359061742952 60.9
204 293.9398573569668 61.2
205 293.9438063276724 61.5
206 293.9477530857639 61.8
207 293.9516976227334 62.09999999999999
208 293.9556398855708 62.4
209 293.9595798427861 62.7
210 293.9635174006007 63
211 293.9674524958508 63.3
212 293.9713850423489 63.59999999999999
213 293.9753149262365 63.9
214 293.9792420642008 64.2
215 293.983166194065 64.5
216 293.9870872246813 64.8
217 293.9910050987367 65.09999999999999
218 293.9949199082729 65.39999999999999
219 293.9988315606535 65.7
220 294.0027399842941 66
221 294.0066450754043 66.3
222 294.0105467923658 66.59999999999999
223 294.014445043745 66.89999999999999
224 294.0183397277561 67.2
225 294.0222307666398 67.5
226 294.0261180428161 67.8
227 294.0300014468442 68.09999999999999
228 294.0338808512579 68.39999999999999
229 294.0377561149626 68.7
230 294.0416271198212 69
231 294.0454937251057 69.3
232 294.0493558205817 69.59999999999999
233 294.0532133107759 69.89999999999999
234 294.0570661295467 70.2
235 294.06091419885 70.5
236 294.0647574434935 70.8
237 294.068595774769 71.09999999999999
238 294.0724291087403 71.39999999999999
239 294.0762573763281 71.7
240 294.0800805187521 72
241 294.0838985054386 72.3
242 294.0877113020089 72.59999999999999
243 294.0915188960917 72.89999999999999
244 294.0953212823774 73.2
245 294.0991184795494 73.5
246 294.1029105193847 73.8
247 294.1066974141288 74.09999999999999
248 294.1104794639127 74.39999999999999
249 294.1142566006625 74.7
250 294.1180288722346 75
251 294.1217963562446 75.3
252 294.1255591268171 75.59999999999999
253 294.1293172803416 75.89999999999999
254 294.1330709048852 76.2
255 294.1368200844875 76.5
256 294.1405649047642 76.8
257 294.144305432857 77.09999999999999
258 294.1480417323842 77.39999999999999
259 294.151773862986 77.7
260 294.155501863455 78
261 294.159225752809 78.3
262 294.1629455816983 78.59999999999999
263 294.166661384677 78.89999999999999
264 294.1703731885353 79.2
265 294.174081041454 79.5
266 294.1777849905407 79.8
267 294.1814850694918 80.09999999999999
268 294.1851813266338 80.39999999999999
269 294.1888738069331 80.7
270 294.1925625737405 81
271 294.196247688371 81.3
272 294.1999292145177 81.59999999999999
273 294.2036072166804 81.89999999999999
274 294.2072817766464 82.2
275 294.2109529853685 82.5
276 294.2146209314934 82.8
277 294.2182856923006 83.09999999999999
278 294.2219473734726 83.39999999999999
279 294.2256060558035 83.7
280 294.2292618559246 84
281 294.2329148697105 84.3
282 294.2365651897879 84.59999999999999
283 294.2402129079835 84.89999999999999
284 294.2438581095205 85.2
285 294.2475008711197 85.5
286 294.2511412700628 85.8
287 294.2547793532238 86.09999999999999
288 294.2584151756562 86.39999999999999
289 294.2620487780636 86.7
290 294.2656801839562 87
291 294.269309406778 87.3
292 294.2729364498625 87.59999999999999
293 294.2765613134736 87.89999999999999
294 294.2801839713594 88.2
295 294.2838044105529 88.5
296 294.2874226034659 88.8
297 294.2910385120132 89.09999999999999
298 294.2946520948288 89.39999999999999
299 294.2982633031355 89.7
300 294.3018720827054 90
301 294.3054783558529 90.3
302 294.3090820667845 90.59999999999999
303 294.3126831464707 90.89999999999999
304 294.3162815147011 91.2
305 294.3198770870791 91.5
306 294.3234697793905 91.8
307 294.3270594879394 92.09999999999999
308 294.3306460949848 92.39999999999999
309 294.3342294952149 92.7
310 294.3378095718899 93
311 294.3413861987147 93.3
312 294.3449592369877 93.59999999999999
313 294.3485285479594 93.89999999999999
314 294.3520939946985 94.2
315 294.3556554526018 94.5
316 294.3592127885518 94.8
317 294.3627659024747 95.09999999999999
318 294.3663147678095 95.39999999999999
319 294.3698592954104 95.7
320 294.3733993681456 96
321 294.3769348615043 96.3
322 294.3804656554447 96.59999999999999
323 294.3839916140718 96.89999999999999
324 294.38751260634 97.2
325 294.3910285106194 97.5
326 294.3945391894408 97.8
327 294.3980445124311 98.09999999999999
328 294.401544363044 98.39999999999999
329 294.4050386331169 98.7
330 294.4085272320706 99
331 294.4120100799805 99.3
332 294.4154871371147 99.59999999999999
333 294.418958376728 99.89999999999999
334 294.4224237813569 100.2
335 294.4258833269739 100.5
336 294.4293369964676 100.8
337 294.4327847797168 101.1
338 294.436226678222 101.4
339 294.4396626715998 101.7
340 294.4430927248071 102
341 294.4465167197378 102.3
342 294.4499344911611 102.6
343 294.4533458743658 102.9
344 294.4567507336225 103.2
345 294.4601489720468 103.5
346 294.463540530085 103.8
347 294.4669254184198 104.1
348 294.4703037147474 104.4
349 294.4736755505389 104.7
350 294.4770410625062 105
351 294.4804003554308 105.3
352 294.483753527979 105.6
353 294.4871006653 105.9
354 294.4904418321322 106.2
355 294.4937770920706 106.5
356 294.497106506596 106.8
357 294.5004301486653 107.1
358 294.5037480662281 107.4
359 294.5070603045633 107.7
360 294.5103669095276 108
361 294.5136679378098 108.3
362 294.5169634553794 108.6
363 294.5202535320731 108.9
364 294.5235382402255 109.2
365 294.5268176414953 109.5
366 294.530091799956 109.8
367 294.533360783975 110.1
368 294.5366247080894 110.4
369 294.5398836138266 110.7
370 294.5431375381494 111
371 294.5463869911381 111.3
372 294.5496324039499 111.6
373 294.5528740734652 111.9
374 294.5561121350506 112.2
375 294.5593465757678 112.5
376 294.5625773023961 112.8
377 294.5658042023732 113.1
378 294.5690271778053 113.4
379 294.5722461582702 113.7
380 294.5754610901522 114
381 294.5786719125452 114.3
382 294.5818785854779 114.6
383 294.5850810736577 114.9
384 294.5882793143116 115.2
385 294.5914732516298 115.5
386 294.594662802974 115.8
387 294.5978478672627 116.1
388 294.6010283318775 116.4
389 294.6042040706852 116.7
390 294.6073749197898 117
391 294.6105407594226 117.3
392 294.6137014716206 117.6
393 294.6168569392149 117.9
394 294.6200070058553 118.2
395 294.6231515639147 118.5
396 294.6262905359274 118.8
397 294.6294238618362 119.1
398 294.6325514229969 119.4
399 294.6356731385532 119.7
400 294.6387889433547 120
401 294.6418989069299 120.3
402 294.645002864911 120.6
403 294.6481006101688 120.9
404 294.6511922976128 121.2
405 294.6542777359101 121.5
406 294.6573570095364 121.8
407 294.6604299715885 122.1
408 294.6634968488514 122.4
409 294.6665575678288 122.7
410 294.6696120563354 123
411 294.672660237469 123.3
412 294.6757021639206 123.6
413 294.678737852268 123.9
414 294.6817673182765 124.2
415 294.6847905563619 124.5
416 294.6878075713841 124.8
417 294.69081837857 125.1
418 294.6938229771343 125.4
419 294.6968213570005 125.7
420 294.6998135005582 126
421 294.7027993676282 126.3
422 294.7057789205134 126.6
423 294.7087521337816 126.9
424 294.711718972674 127.2
425 294.7146793931876 127.5
426 294.7176333485362 127.8
427 294.7205807900249 128.1
428 294.723521668376 128.4
429 294.7264559520948 128.7
430 294.7293835892925 129
431 294.7323045298463 129.3
432 294.7352187285023 129.6
433 294.7381261462868 129.9
434 294.7410267518069 130.2
435 294.7439205220294 130.5
436 294.7468074437477 130.8
437 294.7496875158909 131.1
438 294.7525607500449 131.4
439 294.7554271706239 131.7
440 294.7582868151575 132
441 294.7611397275093 132.3
442 294.7639859737326 132.6
443 294.7668256307539 132.9
444 294.769658788408 133.2
445 294.7724855485467 133.5
446 294.7753060205411 133.8
447 294.7781203221336 134.1
448 294.7809285740549 134.4
449 294.7837308966214 134.7
450 294.7865274164027 135
451 294.7893182619849 135.3
452 294.7921035619346 135.6
453 294.7948834517578 135.9
454 294.7976580706433 136.2
455 294.8004275617964 136.5
456 294.8031920593436 136.8
457 294.805951686885 137.1
458 294.8087065700503 137.4
459 294.8114568393779 137.7
460 294.8142026247436 138
461 294.8169440461654 138.3
462 294.8196812192706 138.6
463 294.8224142642715 138.9
464 294.8251432865309 139.2
465 294.8278683775121 139.5
466 294.8305896082291 139.8
467 294.8333070189464 140.1
468 294.836020607271 140.4
469 294.8387302752846 140.7
470 294.841436035431 141
471 294.8441379047709 141.3
472 294.8468350523042 141.6
473 294.8495270758909 141.9
474 294.8522143076812 142.2
475 294.8548961138051 142.5
476 294.8575721465382 142.8
477 294.8602420124678 143.1
478 294.8629055737221 143.4
479 294.8655627433141 143.7
480 294.8682133613892 144
481 294.8708574107002 144.3
482 294.8734949320629 144.6
483 294.8761258945033 144.9
484 294.8787503864373 145.2
485 294.8813685405086 145.5
486 294.8839804017318 145.8
487 294.8865859946762 146.1
488 294.8891853424612 146.4
489 294.8917784634288 146.7
490 294.8943653509521 147
491 294.8969459618878 147.3
492 294.8995202483548 147.6
493 294.9020881619683 147.9
494 294.904649656297 148.2
495 294.9072048202794 148.5
496 294.9097536333423 148.8
497 294.9122961751033 149.1
498 294.9148326348431 149.4
499 294.9173633143888 149.7
500 294.9198885020616 150
501 294.9224085229795 150.3
502 294.9249237723383 150.6
503 294.927434711755 150.9
504 294.9299417940763 151.2
505 294.932445465996 151.5
506 294.9349461723202 151.8
507 294.9374443235509 152.1
508 294.9399403326213 152.4
509 294.9424346342294 152.7
510 294.9449276940114 153
511 294.9474200698291 153.3
512 294.9499122391878 153.6
513 294.9524046105177 153.9
514 294.9548974944644 154.2
515 294.9573911149229 154.5
516 294.9598855922817 154.8
517 294.9623809123915 155.1
518 294.9648769484727 155.4
519 294.9673735782634 155.7
520 294.9698707449403 156
521 294.9723682309601 156.3
522 294.9748657480349 156.6
523 294.9773630078869 156.9
524 294.979859846213 157.2
525 294.9823562868149 157.5
526 294.9848523357044 157.8
527 294.9873479014726 158.1
528 294.9898428280948 158.4
529 294.9923369090335 158.7
530 294.9948299340425 159
531 294.9973216983821 159.3
532 294.999812008546 159.6
533 295.0023006859433 159.9
534 295.004787621702 160.2
535 295.0072727603338 160.5
536 295.0097560850804 160.8
537 295.012237635917 161.1
538 295.0147175201857 161.4
539 295.0171959964455 161.7
540 295.019673524775 162
541 295.022150799427 162.3
542 295.0246280886396 162.6
543 295.0271052529495 162.9
544 295.0295820367637 163.2
545 295.0320581515666 163.5
546 295.0345333660335 163.8
547 295.0370075607511 164.1
548 295.0394806879946 164.4
549 295.0419528170953 164.7
550 295.0444240669015 165
551 295.046894574749 165.3
552 295.0493645016584 165.6
553 295.0518339981361 165.9
554 295.0543031965029 166.2
555 295.056772215519 166.5
556 295.0592411520049 166.8
557 295.0617100839484 167.1
558 295.0641790471474 167.4
559 295.0666480263483 167.7
560 295.0691169352239 168
561 295.0715856188116 168.3
562 295.0740538846645 168.6
563 295.0765215205482 168.9
564 295.0789883012934 169.2
565 295.0814539880309 169.5
566 295.0839183759322 169.8
567 295.0863813429827 170.1
568 295.0888426003238 170.4
569 295.0913018892899 170.7
570 295.0937589851072 171
571 295.0962136832827 171.3
572 295.098665782949 171.6
573 295.1011150750664 171.9
574 295.1035613532732 172.2
575 295.1060044025926 172.5
576 295.1084440067028 172.8
577 295.1108799725221 173.1
578 295.1133121048797 173.4
579 295.1157402129816 173.7
580 295.1181641165598 174
581 295.1205836425876 174.3
582 295.1229986326351 174.6
583 295.1254089398888 174.9
584 295.1278144350162 175.2
585 295.1302150151822 175.5
586 295.1326106062593 175.8
587 295.1350011571135 176.1
588 295.137386636857 176.4
589 295.1397670427442 176.7
590 295.1421423925503 177
591 295.1445127702484 177.3
592 295.1468783130769 177.6
593 295.1492390856025 177.9
594 295.1515951633965 178.2
595 295.1539465755701 178.5
596 295.1562935214357 178.8
597 295.158636184724 179.1
598 295.1609747263576 179.4
599 295.1633093002341 179.7
600 295.1656400661537 180
601 295.1679671865494 180.3
602 295.1702908304099 180.6
603 295.1726111736935 180.9
604 295.1749284031967 181.2
605 295.1772427112496 181.5
606 295.1795542935525 181.8
607 295.1818633471404 182.1
608 295.1841700906181 182.4
609 295.1864747333192 182.7
610 295.1887774678673 183
611 295.1910784764922 183.3
612 295.1933779346265 183.6
613 295.1956760122987 183.9
614 295.1979728706219 184.2
615 295.2002686506215 184.5
616 295.2025634932444 184.8
617 295.2048575139569 185.1
618 295.2071508090826 185.4
619 295.2094434418228 185.7
620 295.2117354528941 186
621 295.2140268668729 186.3
622 295.2163176899032 186.6
623 295.2186079107392 186.9
624 295.2208975070007 187.2
625 295.2231864441213 187.5
626 295.2254746858796 187.8
