"t-avg-rfile"
"Time Step" "avg-temperature etc.."
("Time Step" "avg-temperature" "flow-time")
0 293.1500000000018 0
1 293.1544058680582 0.3
2 293.158424726664 0.6
3 293.1621769005625 0.8999999999999999
4 293.1657854147441 1.2
5 293.1693252969375 1.5
6 293.1728278737056 1.8
7 293.1763109454197 2.1
8 293.1797928732661 2.4
9 293.1832961003623 2.7
10 293.1868307043078 3
11 293.19038801932 3.3
12 293.1939592306663 3.6
13 293.1975386989478 3.9
14 293.2011182809553 4.2
15 293.2046884817214 4.5
16 293.2082411287955 4.8
17 293.2117820404205 5.1
18 293.2153050647539 5.399999999999999
19 293.2188208924362 5.7
20 293.222330556193 6
21 293.2258283744604 6.3
22 293.2293123866555 6.6
