"t-avg-rfile"
"Time Step" "avg-temperature etc.."
("Time Step" "avg-temperature" "flow-time")
0 293.1500000000018 0
1 293.1660181097468 0.3
2 293.1817420453073 0.6
3 293.1972621695064 0.8999999999999999
4 293.2126282402046 1.2
5 293.2278689410605 1.5
6 293.2430017223301 1.8
7 293.2580377980843 2.1
8 293.272984754757 2.4
9 293.2878479638305 2.7
10 293.3026313791455 3
11 293.3173380070089 3.3
12 293.3319701957578 3.6
13 293.3465298219727 3.9
14 293.361018414418 4.2
15 293.3754372396927 4.5
16 293.3897873635674 4.8
17 293.4040696958386 5.1
18 293.4182850242897 5.399999999999999
19 293.4324340407945 5.7
20 293.4465173614971 6
21 293.4605355420363 6.3
22 293.4744890885261 6.6
23 293.4883784655286 6.899999999999999
24 293.5022041021543 7.199999999999999
25 293.5159663977076 7.5
26 293.5296657270663 7.8
27 293.5433024454133 8.1
28 293.5568768921446 8.4
29 293.5703893937352 8.699999999999999
30 293.5838402658385 9
31 293.5972298149222 9.299999999999999
32 293.610558339616 9.6
33 293.6238261318802 9.9
34 293.6370334780087 10.2
35 293.6501806594665 10.5
36 293.6632679536193 10.8
37 293.6762956342839 11.1
38 293.6892639722118 11.4
39 293.7021732354722 11.7
40 293.7150236897433 12
41 293.727815598592 12.3
42 293.7405492236817 12.6
43 293.7532248249314 12.9
44 293.7658426606251 13.2
45 293.7784029875565 13.5
46 293.7909060611098 13.8
47 293.8033521353482 14.1
48 293.8157414630626 14.4
49 293.8280742958291 14.7
50 293.8403508840409 15
51 293.8525714769495 15.3
52 293.8647363226806 15.6
53 293.876845668272 15.9
54 293.888899759677 16.2
55 293.9008988417918 16.5
56 293.9128431584593 16.8
57 293.9247329524961 17.1
58 293.936568465683 17.4
59 293.9483499387803 17.7
60 293.9600776115558 18
61 293.9717517227589 18.3
62 293.983372510113 18.6
63 293.9949402103052 18.9
64 294.0064550589855 19.2
65 294.017917290763 19.5
66 294.0293271392003 19.8
67 294.0406848368232 20.1
68 294.051990615102 20.4
69 294.0632447044471 20.7
70 294.0744473342014 21
71 294.0855987326312 21.3
72 294.0966991269082 21.6
73 294.1077487431133 21.9
74 294.1187478062244 22.2
75 294.1296965401042 22.5
76 294.1405951675068 22.8
77 294.1514439100801 23.1
78 294.1622429883793 23.4
79 294.1729926218641 23.7
80 294.1836930289113 24
81 294.1943444268513 24.3
82 294.2049470319757 24.6
83 294.2155010595467 24.9
84 294.2260067238287 25.2
85 294.2364642381328 25.5
86 294.2468738148474 25.8
87 294.2572356655108 26.1
88 294.2675500008423 26.4
89 294.2778170307931 26.7
90 294.2880369645993 27
91 294.2982100108174 27.3
92 294.3083363773521 27.6
93 294.3184162714925 27.9
94 294.32844989992 28.2
95 294.3384374687234 28.5
96 294.3483791833802 28.8
97 294.3582752487424 29.1
98 294.3681258690149 29.4
99 294.3779312477003 29.7
100 294.3876915875829 30
101 294.3974070906702 30.3
102 294.4070779581536 30.6
103 294.4167043903678 30.9
104 294.4262865867488 31.2
105 294.4358247458094 31.5
106 294.4453190651208 31.8
107 294.4547697413057 32.1
108 294.4641769700256 32.4
109 294.473540945984 32.7
110 294.4828618629327 33
111 294.4921399136895 33.3
112 294.5013752901508 33.6
113 294.5105681833135 33.9
114 294.5197187832864 34.2
115 294.5288272793115 34.5
116 294.5378938597941 34.8
117 294.5469187123393 35.1
118 294.5559020237663 35.4
119 294.5648439801258 35.7
120 294.5737447667288 36
121 294.5826045681755 36.3
122 294.5914235683775 36.6
123 294.600201950601 36.9
124 294.6089398975073 37.2
125 294.6176375911812 37.5
126 294.6262952131673 37.8
127 294.6349129445231 38.1
128 294.6434909658538 38.4
129 294.6520294573789 38.7
130 294.660528598968 39
131 294.6689885701749 39.3
132 294.677409550272 39.6
133 294.6857917182498 39.9
134 294.6941352528157 40.2
135 294.702440332347 40.5
136 294.7107071348588 40.8
137 294.718935837903 41.1
138 294.7271266184964 41.4
139 294.7352796530134 41.7
140 294.7433951170872 42
141 294.7514731855142 42.3
142 294.759514032149 42.6
143 294.7675178298471 42.9
144 294.7754847503956 43.2
145 294.7834149644515 43.5
146 294.7913086415281 43.8
147 294.7991659499812 44.1
148 294.8069870570158 44.4
149 294.8147721287069 44.7
150 294.8225213300327 45
151 294.8302348249089 45.3
152 294.8379127762394 45.6
153 294.8455553459455 45.9
154 294.8531626950034 46.2
155 294.8607349834676 46.5
156 294.8682723704799 46.8
157 294.8757750142792 47.1
158 294.883243072199 47.4
159 294.8906767006941 47.7
160 294.8980760553598 48
161 294.9054412909354 48.3
162 294.9127725613508 48.6
163 294.9200700197358 48.9
164 294.9273338184609 49.2
165 294.9345641091567 49.5
166 294.9417610427596 49.8
167 294.9489247695586 50.1
168 294.9560554393061 50.4
169 294.9631532013213 50.7
170 294.9702182046639 51
171 294.9772505981855 51.3
172 294.9842505306619 51.6
173 294.9912181507759 51.9
174 294.9981536070655 52.2
175 295.0050570477258 52.5
176 295.0119286203577 52.8
177 295.0187684717172 53.1
178 295.0255767473863 53.4
179 295.0323535915972 53.7
180 295.0390991470975 54
181 295.0458135552802 54.3
182 295.0524969566156 54.6
183 295.0591494914303 54.9
184 295.0657713007524 55.2
185 295.072362527008 55.5
186 295.078923314623 55.8
187 295.0854538095764 56.1
188 295.0919541589938 56.4
189 295.0984245101103 56.7
190 295.104865009248 57
191 295.1112758013969 57.3
192 295.1176570296551 57.59999999999999
193 295.124008834898 57.9
194 295.1303313558596 58.2
195 295.1366247292694 58.5
196 295.142889090445 58.8
197 295.1491245733204 59.09999999999999
198 295.1553313105072 59.4
199 295.1615094329176 59.7
200 295.1676590692597 60
201 295.1737803455234 60.3
202 295.1798733843915 60.59999999999999
203 295.1859383050161 60.9
204 295.1919752230684 61.2
205 295.19798425099 61.5
206 295.2039654984191 61.8
207 295.2099190729142 62.09999999999999
208 295.2158450802131 62.4
209 295.2217436243715 62.7
210 295.2276148076124 63
211 295.2334587299187 63.3
212 295.2392754887928 63.59999999999999
213 295.2450651795254 63.9
214 295.2508278959323 64.2
215 295.2565637332291 64.5
216 295.2622727915845 64.8
217 295.2679551789232 65.09999999999999
218 295.2736110109157 65.39999999999999
219 295.2792404090833 65.7
220 295.2848434978334 66
221 295.290420402155 66.3
222 295.2959712468707 66.59999999999999
223 295.3014961563824 66.89999999999999
224 295.3069952557248 67.2
225 295.312468672074 67.5
226 295.3179165346742 67.8
227 295.3233389737601 68.09999999999999
228 295.3287361184983 68.39999999999999
229 295.3341080948804 68.7
230 295.3394550248413 69
231 295.344777026015 69.3
232 295.3500742115023 69.59999999999999
233 295.355346689849 69.89999999999999
234 295.3605945656665 70.2
235 295.3658179413626 70.5
236 295.3710169197676 70.8
237 295.3761916068847 71.09999999999999
238 295.3813421130221 71.39999999999999
239 295.386468552283 71.7
240 295.3915710413835 72
241 295.3966496982098 72.3
242 295.4017046401431 72.59999999999999
243 295.4067359830911 72.89999999999999
244 295.4117438416788 73.2
245 295.4167283286122 73.5
246 295.421689555764 73.8
247 295.4266276341124 74.09999999999999
248 295.4315426742243 74.39999999999999
249 295.4364347865583 74.7
250 295.441304081278 75
251 295.4461506687998 75.3
252 295.4509746595479 75.59999999999999
253 295.4557761640905 75.89999999999999
254 295.4605552932131 76.2
255 295.4653121580111 76.5
256 295.4700468699184 76.8
257 295.4747595405286 77.09999999999999
258 295.4794502814112 77.39999999999999
259 295.4841192037915 77.7
260 295.48876641834 78
261 295.4933920348344 78.3
262 295.497996161891 78.59999999999999
263 295.5025789068719 78.89999999999999
264 295.5071403758047 79.2
265 295.5116806733041 79.5
266 295.5161999025111 79.8
267 295.520698165203 80.09999999999999
268 295.5251755619452 80.39999999999999
269 295.5296321922145 80.7
270 295.5340681546936 81
271 295.5384835471971 81.3
272 295.5428784668314 81.59999999999999
273 295.5472530098941 81.89999999999999
274 295.5516072719752 82.2
275 295.5559413479025 82.5
276 295.5602553319013 82.8
277 295.5645493177309 83.09999999999999
278 295.5688233987414 83.39999999999999
279 295.5730776679799 83.7
280 295.5773122180354 84
281 295.5815271409043 84.3
282 295.5857225277236 84.59999999999999
283 295.5898984686218 84.89999999999999
284 295.5940550522545 85.2
285 295.5981923658206 85.5
286 295.6023104951011 85.8
287 295.6064095243662 86.09999999999999
288 295.610489536238 86.39999999999999
289 295.6145506116684 86.7
290 295.6185928299051 87
291 295.6226162682198 87.3
292 295.6266210018853 87.59999999999999
293 295.6306071038742 87.89999999999999
294 295.6345746450825 88.2
295 295.6385236945536 88.5
296 295.64245431984 88.8
297 295.6463665877139 89.09999999999999
298 295.6502605651528 89.39999999999999
299 295.6541363202693 89.7
300 295.6579939230826 90
301 295.6618334459574 90.3
302 295.6656549635901 90.59999999999999
303 295.6694585529294 90.89999999999999
304 295.6732442923353 91.2
305 295.677012261008 91.5
306 295.6807625380437 91.8
307 295.684495201699 92.09999999999999
308 295.6882103288916 92.39999999999999
309 295.6919079949569 92.7
310 295.6955882742092 93
311 295.699251240483 93.3
312 295.7028969684566 93.59999999999999
313 295.7065255349383 93.89999999999999
314 295.7101370202663 94.2
315 295.7137315095748 94.5
316 295.717309093657 94.8
317 295.7208698695292 95.09999999999999
318 295.7244139399083 95.39999999999999
319 295.727941412186 95.7
320 295.7314523977493 96
321 295.734947010079 96.3
322 295.7384253619309 96.59999999999999
323 295.7418875619651 96.89999999999999
324 295.7453337123877 97.2
325 295.7487639047847 97.5
326 295.7521782186947 97.8
327 295.7555767196717 98.09999999999999
328 295.7589594594746 98.39999999999999
329 295.762326478463 98.7
330 295.7656778089633 99
331 295.7690134814176 99.3
332 295.7723335302387 99.59999999999999
333 295.7756380003542 99.89999999999999
334 295.7789269509238 100.2
335 295.7822004557871 100.5
336 295.785458600284 100.8
337 295.7887014777534 101.1
338 295.7919291863625 101.4
339 295.7951418265824 101.7
340 295.7983394989433 102
341 295.8015223022799 102.3
342 295.804690331947 102.6
343 295.8078436778459 102.9
344 295.8109824228018 103.2
345 295.81410664063 103.5
346 295.8172163955642 103.8
347 295.8203117424193 104.1
348 295.8233927277856 104.4
349 295.8264593924349 104.7
350 295.8295117749475 105
351 295.8325499169175 105.3
352 295.8355738664823 105.6
353 295.8385836802078 105.9
354 295.841579422994 106.2
355 295.8445611655342 106.5
356 295.8475289807528 106.8
357 295.8504829400227 107.1
358 295.8534231104775 107.4
359 295.8563495537827 107.7
360 295.8592623266804 108
361 295.8621614823155 108.3
362 295.8650470720114 108.6
363 295.867919146943 108.9
364 295.8707777586877 109.2
365 295.8736229598641 109.5
366 295.8764548039522 109.8
367 295.8792733451274 110.1
368 295.8820786387757 110.4
369 295.8848707424526 110.7
370 295.887649716676 111
371 295.8904156254818 111.3
372 295.89316853665 111.6
373 295.8959085222218 111.9
374 295.8986356588341 112.2
375 295.9013500281375 112.5
376 295.904051716478 112.8
377 295.9067408139788 113.1
378 295.909417412475 113.4
379 295.9120816027694 113.7
380 295.9147334726865 114
381 295.9173731044261 114.3
382 295.9200005735586 114.6
383 295.9226159478864 114.9
384 295.9252192867524 115.2
385 295.9278106410364 115.5
386 295.9303900539123 115.8
387 295.9329575627335 116.1
388 295.9355132022234 116.4
389 295.9380570088306 116.7
390 295.9405890237255 117
391 295.9431092936988 117.3
392 295.9456178699711 117.6
393 295.9481148058287 117.9
394 295.9506001546646 118.2
395 295.9530739691162 118.5
396 295.9555363013228 118.8
397 295.9579872042398 119.1
398 295.9604267331226 119.4
399 295.9628549471563 119.7
400 295.9652719100426 120
401 295.9676776914092 120.3
402 295.9700723693744 120.6
403 295.9724560337677 120.9
404 295.9748287833756 121.2
405 295.9771907116823 121.5
406 295.9795418945577 121.8
407 295.9818823888597 122.1
408 295.9842122392782 122.4
409 295.9865314860504 122.7
410 295.9888401697741 123
411 295.9911383328886 123.3
412 295.9934260190375 123.6
413 295.9957032713196 123.9
414 295.9979701309425 124.2
415 296.0002266360411 124.5
416 296.0024728213963 124.8
417 296.004708717393 125.1
418 296.0069343500384 125.4
419 296.0091497405999 125.7
420 296.0113549057519 126
421 296.0135498574986 126.3
422 296.0157346044406 126.6
423 296.0179091533122 126.9
424 296.020073511208 127.2
425 296.0222276882308 127.5
426 296.0243716996519 127.8
427 296.0265055675218 128.1
428 296.0286293216358 128.4
429 296.0307429991598 128.7
430 296.032846644383 129
431 296.0349403065611 129.3
432 296.0370240387523 129.6
433 296.039097895244 129.9
434 296.0411619291237 130.2
435 296.0432161889142 130.5
436 296.0452607157347 130.8
437 296.0472955423153 131.1
438 296.0493206959413 131.4
439 296.0513362029226 131.7
440 296.0533420960989 132
441 296.0553384195194 132.3
442 296.0573252302908 132.6
443 296.0593025964527 132.9
444 296.0612705923208 133.2
445 296.0632292928668 133.5
446 296.0651787683126 133.8
447 296.0671190815721 134.1
448 296.0690502867265 134.4
449 296.070972429693 134.7
450 296.0728855507595 135
451 296.0747896869905 135.3
452 296.0766848754612 135.6
453 296.0785711562878 135.9
454 296.080448575106 136.2
455 296.082317183964 136.5
456 296.0841770423153 136.8
457 296.0860282165737 137.1
458 296.0878707771533 137.4
459 296.0897047961033 137.7
460 296.091530342587 138
461 296.0933474776248 138.3
462 296.0951562501326 138.6
463 296.0969566947916 138.9
464 296.098748832316 139.2
465 296.1005326725999 139.5
466 296.1023082206823 139.8
467 296.1040754848807 140.1
468 296.1058344821127 140.4
469 296.1075852400568 140.7
470 296.1093277927579 141
471 296.1110621771353 141.3
472 296.1127884321567 141.6
473 296.1145065986063 141.9
474 296.1162167184912 142.2
475 296.1179188329458 142.5
476 296.1196129786625 142.8
477 296.1212991874357 143.1
478 296.1229774865101 143.4
479 296.1246479007773 143.7
480 296.1263104550923 144
481 296.1279651753471 144.3
482 296.1296120892945 144.6
483 296.1312512265717 144.9
484 296.1328826181415 145.2
485 296.1345062957103 145.5
486 296.1361222913619 145.8
487 296.1377306376805 146.1
488 296.1393313670116 146.4
489 296.140924511323 146.7
490 296.1425101021269 147
491 296.1440881710136 147.3
492 296.1456587505393 147.6
493 296.1472218763149 147.9
494 296.148777589365 148.2
495 296.1503259373434 148.5
496 296.1518669727397 148.8
497 296.1534007511937 149.1
498 296.1549273298329 149.4
499 296.1564467660569 149.7
500 296.1579591172453 150
501 296.1594644401069 150.3
502 296.1609627899221 150.6
503 296.1624542207317 150.9
504 296.1639387847276 151.2
505 296.1654165324735 151.5
506 296.166887512917 151.8
507 296.1683517734485 152.1
508 296.1698093598998 152.4
509 296.171260317115 152.7
510 296.172704688889 153
511 296.1741425183695 153.3
512 296.1755738488995 153.6
513 296.1769987241076 153.9
514 296.1784171874122 154.2
